Time [s],Velocity [km/h],Throttle [%],Battery Temperature [C],Ambient Temperature [C],Heating Power CAN [kW],AirCon Power [kW],SoC [%]
0.0,4.994,5.6738333333333335,21.266666666666666,22.33333333333333,0.7293333333333333,0.624,79.21000000000001
1.0,5.238598,5.233999999999999,21.266666666666666,22.33333333333333,0.756,0.6056666666666667,79.21000000000001
2.0,5.358600333333333,9.281666666666666,21.266666666666666,22.33333333333333,0.756,0.6143333333333333,79.20666666666666
3.0,5.882938666666666,12.857833333333334,21.266666666666666,22.348000000000003,0.7411093333333334,0.633888,79.2
4.0,6.748156333333333,12.898314666666666,21.266666666666666,22.35,0.732,0.62,79.2
5.0,7.566952666666667,13.253029666666666,21.266666666666666,22.338,0.729,0.6286666666666666,79.19666666666667
6.0,8.144098666666666,15.404359666666666,21.266666666666666,22.345333333333333,0.7456666666666667,0.6586666666666666,79.18333333333334
7.0,8.874272333333332,14.901429666666669,21.266666666666666,22.35,0.7558050000000001,0.680241,79.174
8.0,9.387594666666669,13.294808,21.266666666666666,22.337983333333334,0.7546666666666667,0.6893333333333334,79.16333333333334
9.0,9.532559999999998,15.476925666666666,21.266666666666666,22.32133333333333,1.0813333333333333,0.6716666666666666,79.15666666666667
10.0,10.214189,17.511494666666668,21.266666666666666,22.328666666666667,0.752,0.6794853333333334,79.15
11.0,11.031095333333331,18.933307,21.266666666666666,22.329666666666665,0.896,0.6978316666666667,79.14
12.0,11.828528666666667,18.08527833333333,21.266666666666666,22.346,0.9236666666666667,0.6850923333333334,79.12466666666667
13.0,12.555612333333332,17.551499999999997,21.266666666666666,22.363333333333333,0.96,0.6793333333333333,79.11333333333333
14.0,13.244274666666666,21.95397366666667,21.266666666666666,22.378666666666668,0.768,0.6676383333333333,79.11333333333333
15.0,14.375063333333332,19.871984666666663,21.266666666666666,22.357000000000003,0.7656666666666666,0.6673286666666667,79.114
16.0,15.229266,19.14073266666667,21.266666666666666,22.35,0.911,0.6630373333333334,79.11
17.0,15.434844666666669,19.554679333333336,21.266666666666666,22.369000000000003,0.7693333333333333,0.655728,79.11
18.0,15.794720666666668,21.571687,21.266666666666666,22.386666666666667,1.1373333333333333,0.6484556666666667,79.11
19.0,16.404505333333333,21.082928,21.266666666666666,22.412666666666667,0.763,0.6302076666666667,79.10733333333333
20.0,16.661129666666668,21.084647333333333,21.266666666666666,22.40333333333333,0.9466666666666668,0.6331223333333332,79.1
21.0,16.774683666666668,22.176972666666664,21.266666666666666,22.414,0.7703333333333333,0.6213123333333334,79.09666666666666
22.0,17.272810333333332,24.177281666666666,21.266666666666666,22.42866666666667,0.77,0.6016666666666667,79.09333333333333
23.0,18.223959666666666,24.680289,21.266666666666666,22.40833333333333,0.7586666666666666,0.6191169999999999,79.08
24.0,19.209922,26.996060666666665,21.266666666666666,22.419666666666668,0.7593333333333334,0.6066666666666667,79.068947
25.0,20.17161833333333,28.647256,21.266666666666666,22.433333333333334,0.951,0.604887,79.06506333333333
26.0,21.332157,28.983501666666665,21.266666666666666,22.433333333333334,0.7830356666666667,0.6042690000000001,79.05333333333333
27.0,22.36672433333333,28.81785,21.288666666666664,22.421666666666667,0.7840356666666666,0.6163333333333333,79.03733333333334
28.0,23.426232666666667,30.694721,21.3,22.42833333333333,0.968,0.6124123333333333,79.028
29.0,24.43311933333333,28.187803666666664,21.3,22.40833333333333,0.974688,0.6104269999999999,79.01333333333334
30.0,24.88216633333333,28.15478033333333,21.3,22.400666666666663,0.7916666666666666,0.6056666666666666,79.00703933333334
31.0,25.44782766666667,29.658819666666663,21.3,22.393898666666665,1.1586666666666663,0.6203333333333333,79.00170566666667
32.0,26.139940000000003,29.805927666666665,21.3,22.381293666666668,0.7878906666666666,0.6126666666666668,78.99666666666667
33.0,26.884392,27.563104666666668,21.3,22.397117,0.9418166666666666,0.6003333333333333,78.99333333333334
34.0,27.104466666666667,26.679520000000004,21.3,22.38566666666667,0.9483863333333332,0.6026666666666667,78.99666666666667
35.0,27.038545,27.616266666666668,21.268444666666667,22.398657,1.0748856666666666,0.6170000000000001,78.98333333333333
36.0,26.995876,31.012286,21.266666666666666,22.403301,0.9506666666666668,0.6069220000000001,78.97666666666667
37.0,27.452689,31.522642333333334,21.266666666666666,22.41333333333333,1.12,0.603496,78.968
38.0,28.021723,33.360875666666665,21.266666666666666,22.39370733333333,0.7466666666666666,0.609,78.96000000000001
39.0,28.83551033333333,33.71760233333333,21.266666666666666,22.392252,0.7725463333333333,0.608274,78.95700000000001
40.0,29.70135966666667,32.89237633333333,21.266666666666666,22.383333333333333,1.3646666666666667,0.6026666666666667,78.94
41.0,30.265530666666667,32.37093566666667,21.266666666666666,22.383333333333333,0.8160000000000001,0.603,78.93
42.0,30.631729,31.594980333333336,21.266666666666666,22.369000000000003,0.7986666666666667,0.5985236666666667,78.92333333333333
43.0,31.07812266666667,32.830452333333334,21.266666666666666,22.337343333333333,0.7866666666666667,0.595621,78.90823966666667
44.0,31.662028000000003,32.408999,21.266666666666666,22.332306000000003,0.7453333333333333,0.5977363333333333,78.89
45.0,32.27341966666667,32.76906566666666,21.266666666666666,22.334359,0.7391156666666667,0.5920973333333334,78.88666666666667
46.0,33.00007433333333,31.450196666666667,21.266666666666666,22.316666666666663,0.7146666666666667,0.599264,78.87918566666667
47.0,33.556552,29.915523333333333,21.266666666666666,22.30605166666667,0.9312196666666668,0.5850046666666666,78.86666666666666
48.0,33.96899766666667,28.919865666666663,21.266666666666666,22.31334766666667,0.968,0.5855436666666667,78.86333333333333
49.0,33.91378733333333,28.673639,21.266666666666666,22.3,0.7899229999999999,0.582721,78.85
50.0,33.56199933333333,26.130822666666667,21.3,22.311666666666667,0.8086666666666666,0.583039,78.84666666666666
51.0,32.764444,24.15962,21.315768,22.316666666666663,1.037981,0.5824603333333334,78.83333333333333
52.0,31.77871,23.572548,21.33333333333333,22.316666666666663,1.0806473333333335,0.5776203333333334,78.83999999999999
53.0,30.839631666666666,25.619933,21.33333333333333,22.303477,1.26774,0.575795,78.83999999999999
54.0,30.41920233333333,26.224861,21.33333333333333,22.27133333333333,1.003,0.5691076666666667,78.83033333333333
55.0,30.037723333333336,25.759211333333333,21.33333333333333,22.27985733333333,1.0434686666666666,0.5717956666666667,78.82333333333332
56.0,29.861492,28.32228333333333,21.33333333333333,22.297,1.2476666666666667,0.5640186666666668,78.81433333333332
57.0,30.16816233333333,28.11477,21.33333333333333,22.286813666666667,0.9287396666666666,0.5668683333333334,78.80666666666666
58.0,30.336662666666665,27.38237833333333,21.360666666666667,22.255666666666663,0.948,0.5666936666666668,78.79666666666667
59.0,30.537929,30.445787666666664,21.366666666666667,22.27766666666667,0.7983899999999999,0.5635486666666666,78.78333333333333
60.0,31.113610666666663,30.692339666666665,21.366666666666667,22.28333333333333,1.0053333333333334,0.5622586666666667,78.76466666666667
61.0,32.03142,31.51936133333333,21.433333333333334,22.285,0.8586666666666666,0.5632163333333333,78.75366666666667
62.0,32.976319333333336,30.39261533333333,21.433333333333334,22.313,0.964,0.5585816666666666,78.74227666666667
63.0,33.671228,28.33256,21.433333333333334,22.330666666666666,0.9332103333333334,0.5641443333333334,78.73
64.0,33.691104333333335,25.847936,21.433333333333334,22.316333333333333,0.977,0.5709153333333333,78.72666666666667
65.0,33.44871366666667,29.081931,21.433333333333334,22.307333333333336,1.198651,0.591763,78.72
66.0,33.613289,28.560941,21.433333333333334,22.286,1.0226666666666666,0.642124,78.71666666666667
67.0,33.654984666666664,27.880801,21.433333333333334,22.270666666666667,0.844,0.6387893333333333,78.70800000000001
68.0,33.878905333333336,27.195813,21.433333333333334,22.290333333333333,0.9167066666666668,0.6465580000000001,78.69666666666667
69.0,34.009532666666665,29.937294,21.433333333333334,22.287333333333333,0.9648963333333334,0.6410096666666667,78.68066666666667
70.0,34.399400666666665,30.33626466666667,21.433333333333334,22.27533333333333,0.9252523333333332,0.6361436666666668,78.67123
71.0,34.91835266666667,28.85546933333333,21.433333333333334,22.266666666666666,0.7876263333333334,0.6454156666666666,78.65166666666667
72.0,34.94844533333333,27.467784,21.433333333333334,22.27433333333333,0.822,0.6388466666666667,78.63920166666666
73.0,35.00376366666667,26.213663333333333,21.433333333333334,22.280666666666665,1.027116,0.6251106666666666,78.63066666666667
74.0,34.999135,30.215754333333333,21.466666666666665,22.27858133333333,0.9773333333333334,0.6376123333333333,78.62666666666668
75.0,35.436939,29.833269,21.466666666666665,22.266666666666666,0.6520103333333334,0.659385,78.62920133333334
76.0,35.921262666666664,29.41857033333333,21.466666666666665,22.255333333333333,0.832626,0.6581153333333333,78.614
77.0,36.25977366666667,27.921288333333333,21.5,22.24233333333333,0.648,0.6924113333333334,78.60333333333332
78.0,36.17255433333333,29.54363233333333,21.5,22.249666666666663,0.7453333333333333,0.6766369999999999,78.59666666666666
79.0,36.330409,31.758579333333333,21.5,22.258,0.7516666666666666,0.6673333333333333,78.58666666666666
80.0,36.747917,30.714267666666668,21.5,22.258666666666667,0.6204750000000001,0.6602149999999999,78.57333333333332
81.0,37.30816766666667,31.56916933333333,21.5,22.266666666666666,0.5906666666666667,0.6455013333333334,78.56666666666666
82.0,37.61530333333334,29.732655,21.5,22.268,0.5986666666666667,0.6410483333333333,78.54666666666667
83.0,37.847868,31.978680333333333,21.5,22.271918666666668,0.6537873333333333,0.6323333333333333,78.53999999999999
84.0,38.21229233333334,32.445490666666664,21.5,22.266666666666666,0.6756653333333333,0.631,78.53
85.0,38.43279366666666,29.90380533333333,21.5,22.27733333333333,1.1905796666666666,0.6273333333333333,78.51866666666666
86.0,38.427515666666665,29.59518733333333,21.5,22.264,0.6795243333333333,0.628072,78.51366666666667
87.0,38.30531033333333,29.574521666666666,21.5,22.28333333333333,0.6831423333333333,0.625595,78.51
88.0,38.13276366666666,29.797847,21.5,22.25752733333333,0.6910000000000001,0.612738,78.49808166666666
89.0,37.978377,30.559040666666665,21.5,22.251666666666665,0.83,0.6116606666666667,78.49333333333334
90.0,37.96711533333334,29.304367666666668,21.5,22.25,0.699524,0.605473,78.48666666666666
91.0,37.905075,32.76125733333333,21.5,22.25733333333333,0.8901903333333333,0.6143476666666667,78.47666666666667
92.0,38.406656,33.377583333333334,21.5,22.25933333333333,0.703,0.6174086666666666,78.45666666666666
93.0,38.99149333333333,33.60262166666667,21.53333333333333,22.25,0.7053333333333334,0.6312979999999999,78.44666666666667
94.0,39.61687133333333,33.410811,21.566666666666663,22.25,0.839624,0.6155566666666666,78.43366666666667
95.0,40.083080333333335,32.271909666666666,21.566666666666663,22.25,0.7436863333333332,0.5966873333333333,78.42366666666666
96.0,40.437082,32.24124666666667,21.566666666666663,22.25,0.6965673333333332,0.6040186666666667,78.40666666666667
97.0,40.46175933333333,33.522727,21.566666666666663,22.25,0.8803333333333333,0.6130703333333333,78.39
98.0,40.83462899999999,35.224163,21.566666666666663,22.25,1.0613333333333332,0.5958600000000001,78.38666666666667
99.0,41.29866533333333,33.94641133333333,21.566666666666663,22.25,0.870783,0.572668,78.37926399999999
100.0,41.628875,32.53566333333333,21.566666666666663,22.233995,0.6773333333333333,0.566263,78.36333333333333
101.0,41.61423166666667,31.66560666666667,21.566666666666663,22.237264666666665,0.9548106666666668,0.5644196666666667,78.36058
102.0,41.297607,32.266737,21.566666666666663,22.26233333333333,0.7286666666666667,0.5705473333333334,78.354
103.0,40.91392766666667,31.789343,21.566666666666663,22.266666666666666,0.7458103333333334,0.5706760000000001,78.33633333333334
104.0,40.65216333333333,32.588194666666666,21.566666666666663,22.25487833333333,0.7806666666666666,0.5577826666666666,78.34033333333333
105.0,40.522061666666666,31.080681,21.566666666666663,22.26275233333333,1.0025223333333333,0.568107,78.32333333333332
106.0,40.148909,30.605780666666664,21.566666666666663,22.258594666666667,0.8546219999999999,0.5757716666666667,78.31765666666666
107.0,39.750858666666666,30.74391633333333,21.566666666666663,22.25,0.8832319999999999,0.5678196666666667,78.31666666666666
108.0,39.37649033333334,28.745322,21.566666666666663,22.246216333333333,1.0746813333333334,0.5630123333333333,78.31133333333334
109.0,38.77305033333334,26.63669666666667,21.566666666666663,22.237078333333333,0.877459,0.570732,78.30666666666666
110.0,38.021365,27.949518666666663,21.566666666666663,22.246261666666665,0.815237,0.5708603333333334,78.29366666666667
111.0,37.37189466666667,30.143784333333333,21.566666666666663,22.243,0.859289,0.5638486666666667,78.29433966666667
112.0,37.124566,31.233930666666662,21.566666666666663,22.235666666666667,0.8812286666666667,0.5652693333333333,78.28333333333333
113.0,36.95768133333333,30.04805533333333,21.566666666666663,22.23333333333333,0.8878503333333333,0.561237,78.28333333333333
114.0,36.458675,29.278645,21.566666666666663,22.23333333333333,0.9288053333333331,0.5573946666666667,78.26733333333333
115.0,35.622556333333335,26.031140666666666,21.566666666666663,22.23333333333333,0.952427,0.551387,78.26314
116.0,34.627215,25.987108666666664,21.566666666666663,22.23333333333333,0.9347156666666668,0.5407726666666667,78.26333333333334
117.0,34.395657,30.743773333333333,21.53333333333333,22.23333333333333,0.8146706666666667,0.5364123333333333,78.26333333333334
118.0,34.850152333333334,28.498929666666665,21.53333333333333,22.23333333333333,0.8312923333333334,0.530547,78.25
119.0,34.834784,26.83045,21.566666666666663,22.24533333333333,0.86,0.5232656666666666,78.234
120.0,34.23458166666667,22.949775,21.566666666666663,22.243666666666662,0.6733333333333333,0.522727,78.23
121.0,33.419443666666666,25.362629666666667,21.566666666666663,22.233666666666668,0.8533333333333333,0.543006,78.22666666666667
122.0,32.63750433333333,25.07435733333333,21.566666666666663,22.26233333333333,0.659689,0.5524603333333334,78.22333333333333
123.0,31.890988666666665,25.876487666666662,21.566666666666663,22.27833333333333,0.6493333333333333,0.5481506666666667,78.22
124.0,31.147703666666665,25.610868,21.566666666666663,22.27133333333333,0.6236666666666667,0.5494006666666668,78.21333333333334
125.0,30.918277666666665,26.472974,21.566666666666663,22.281815666666667,0.5926666666666667,0.540712,78.20763966666667
126.0,30.81119333333333,27.373300333333336,21.566666666666663,22.3,0.5896666666666667,0.5348116666666667,78.20733333333332
127.0,30.759202,28.183057,21.566666666666663,22.31566666666667,0.6,0.5292113333333334,78.20133333333334
128.0,30.934773,26.99374433333333,21.580476,22.322666666666667,0.7706666666666667,0.524053,78.19443466666667
129.0,31.011572,28.717403666666662,21.6,22.33333333333333,0.5855593333333334,0.5295166666666666,78.18666666666667
130.0,31.430975333333333,28.084237,21.6,22.345666666666663,0.5853893333333333,0.516746,78.17133333333332
131.0,31.559463333333333,27.676356666666667,21.6,22.342666666666663,0.5864806666666667,0.524046,78.16666666666667
132.0,31.674476,26.225772,21.6,22.35,0.7573333333333333,0.5191436666666667,78.16666666666667
133.0,31.725258333333333,27.128749666666668,21.6,22.366,0.66338,0.5057646666666666,78.15833333333333
134.0,32.002419333333336,26.91572366666667,21.6,22.383333333333333,0.74,0.511338,78.15
135.0,32.388834,25.932472,21.6,22.394,0.5099533333333334,0.5061686666666667,78.14
136.0,32.345989,25.40164133333333,21.6,22.39966666666667,0.7173333333333333,0.510866,78.14
137.0,32.388314666666666,26.466275666666665,21.6,22.411,0.6756666666666666,0.4942626666666667,78.14333333333335
138.0,32.52649833333333,27.040478,21.6,22.416666666666668,0.5113803333333333,0.4875879999999999,78.13466666666666
139.0,32.44261066666667,25.584670666666668,21.6,22.416666666666668,0.517,0.4898123333333333,78.12899999999999
140.0,32.212740333333336,27.228141,21.6,22.429,0.5103333333333333,0.490232,78.12666666666668
141.0,32.126900666666664,26.906821666666666,21.6,22.433333333333334,0.5135263333333333,0.4949846666666667,78.11494133333333
142.0,32.187884000000004,26.992585,21.6,22.435315666666668,0.6972403333333334,0.489602,78.10392699999998
143.0,32.17973033333333,25.194192,21.6,22.433333333333334,0.8786666666666666,0.4870646666666667,78.08999999999999
144.0,31.93520433333333,23.572544666666666,21.6,22.44933333333333,0.711619,0.4893333333333333,78.08
145.0,31.557713,21.020102666666663,21.6,22.45,0.7123813333333333,0.488615,78.08023533333333
146.0,30.739591333333333,21.835723666666663,21.6,22.425864,0.5220753333333333,0.482,78.08200000000001
147.0,29.716348,20.217766,21.6,22.418,0.5158393333333333,0.4773333333333333,78.07666666666667
148.0,28.615011,19.91288966666667,21.6,22.43589,0.5100616666666666,0.471497,78.07
149.0,27.781366666666667,23.220893666666665,21.6,22.439484333333333,0.833617,0.472823,78.07
150.0,27.750608,22.39341733333333,21.6,22.454559333333336,0.5187796666666666,0.4714606666666666,78.05926166666667
151.0,27.862077666666668,22.332897666666668,21.6,22.466666666666665,0.7053333333333334,0.469,78.06
152.0,27.95677133333333,22.74760433333333,21.6,22.473666666666663,0.5184256666666667,0.477,78.05
153.0,27.904686666666667,24.964925,21.6,22.478611333333333,0.6930433333333333,0.4821053333333333,78.05
154.0,28.24451333333333,25.74164133333333,21.6,22.493666666666662,0.5087156666666667,0.4873333333333333,78.03333333333333
155.0,28.83564,25.489517,21.6,22.477730666666663,0.8200000000000001,0.475,78.03333333333333
156.0,29.254124,28.307382,21.6,22.492,0.5103449999999999,0.4752156666666666,78.03099999999999
157.0,30.375755,31.686936,21.6,22.485,0.8307893333333333,0.4772283333333333,78.011
158.0,31.933682,29.925219,21.6,22.461666666666662,0.4819006666666666,0.4689096666666666,77.99666666666667
159.0,32.879236,27.563771666666664,21.6,22.449666666666666,0.6226666666666667,0.469364,77.99333333333334
160.0,33.24294366666667,25.43792433333333,21.6,22.43133333333333,0.6533333333333334,0.4582146666666666,77.99
161.0,33.311655333333334,29.306406,21.6,22.445666666666668,0.471284,0.4558613333333333,77.98666666666666
162.0,34.039716,31.791969666666667,21.6,22.439666666666668,0.473199,0.4523333333333333,77.97926000000001
163.0,35.05536166666666,32.272816,21.6,22.441666666666663,0.6368356666666667,0.4536666666666666,77.97449833333333
164.0,36.22486933333333,31.388936333333334,21.6,22.45,0.4613333333333333,0.4603333333333333,77.95466666666667
165.0,37.05686333333333,25.40216666666667,21.6,22.470366,0.4666666666666667,0.4501583333333333,77.94766666666666
166.0,36.971515,26.104794,21.6,22.497333333333334,0.4573333333333333,0.4526726666666666,77.93666666666667
167.0,36.79755866666667,28.003731,21.6,22.488586,0.648398,0.4587283333333333,77.93333333333334
168.0,36.731799333333335,27.934935666666668,21.6,22.496,0.8198863333333333,0.4563129999999999,77.92666666666668
169.0,36.767502,28.306227666666665,21.6,22.48733333333333,0.656303,0.475535,77.91833333333334
170.0,36.884467666666666,24.390360333333334,21.6,22.496,0.472525,0.4685306666666667,77.894
171.0,36.82780833333334,26.237419666666668,21.633333333333333,22.482666666666667,0.4727473333333333,0.4626973333333333,77.89
172.0,36.888598,24.790072,21.633333333333333,22.48333333333333,0.4689696666666666,0.4696056666666666,77.88126966666667
173.0,36.70705266666666,20.152558666666668,21.633333333333333,22.49833333333333,0.4638586666666667,0.463,77.87306366666667
174.0,36.05725366666666,21.345471,21.633333333333333,22.5,0.4613333333333333,0.4623333333333333,77.87166666666667
